T-PVK 1.68 V_1.6 M_AS 100 uL - RawData
Wavelength nm. T%
300.0 0.1
301.0 0.1
302.0 0.1
303.0 0.1
304.0 0.1
305.0 0.1
306.0 0.1
307.0 0.1
308.0 0.1
309.0 0.1
310.0 0.1
311.0 0.1
312.0 0.1
313.0 0.1
314.0 0.1
315.0 0.1
316.0 0.1
317.0 0.1
318.0 0.2
319.0 0.2
320.0 0.2
321.0 0.2
322.0 0.2
323.0 0.2
324.0 0.2
325.0 0.2
326.0 0.2
327.0 0.2
328.0 0.2
329.0 0.2
330.0 0.2
331.0 0.2
332.0 0.2
333.0 0.2
334.0 0.2
335.0 0.2
336.0 0.2
337.0 0.2
338.0 0.2
339.0 0.2
340.0 0.2
341.0 0.2
342.0 0.2
343.0 0.2
344.0 0.2
345.0 0.2
346.0 0.2
347.0 0.2
348.0 0.2
349.0 0.2
350.0 0.2
351.0 0.2
352.0 0.2
353.0 0.2
354.0 0.2
355.0 0.2
356.0 0.2
357.0 0.2
358.0 0.2
359.0 0.2
360.0 0.2
361.0 0.2
362.0 0.2
363.0 0.2
364.0 0.2
365.0 0.2
366.0 0.2
367.0 0.2
368.0 0.2
369.0 0.2
370.0 0.2
371.0 0.2
372.0 0.2
373.0 0.2
374.0 0.2
375.0 0.2
376.0 0.2
377.0 0.2
378.0 0.2
379.0 0.2
380.0 0.2
381.0 0.2
382.0 0.2
383.0 0.2
384.0 0.2
385.0 0.2
386.0 0.2
387.0 0.2
388.0 0.2
389.0 0.2
390.0 0.2
391.0 0.2
392.0 0.2
393.0 0.2
394.0 0.2
395.0 0.2
396.0 0.2
397.0 0.2
398.0 0.2
399.0 0.2
400.0 0.2
401.0 0.2
402.0 0.2
403.0 0.2
404.0 0.2
405.0 0.2
406.0 0.2
407.0 0.2
408.0 0.2
409.0 0.2
410.0 0.2
411.0 0.2
412.0 0.2
413.0 0.2
414.0 0.2
415.0 0.2
416.0 0.2
417.0 0.2
418.0 0.2
419.0 0.2
420.0 0.2
421.0 0.2
422.0 0.2
423.0 0.2
424.0 0.2
425.0 0.2
426.0 0.2
427.0 0.2
428.0 0.2
429.0 0.2
430.0 0.2
431.0 0.2
432.0 0.2
433.0 0.2
434.0 0.2
435.0 0.2
436.0 0.2
437.0 0.2
438.0 0.2
439.0 0.2
440.0 0.2
441.0 0.2
442.0 0.2
443.0 0.2
444.0 0.2
445.0 0.2
446.0 0.2
447.0 0.2
448.0 0.2
449.0 0.2
450.0 0.2
451.0 0.2
452.0 0.2
453.0 0.2
454.0 0.2
455.0 0.2
456.0 0.2
457.0 0.2
458.0 0.2
459.0 0.2
460.0 0.2
461.0 0.2
462.0 0.2
463.0 0.2
464.0 0.2
465.0 0.2
466.0 0.2
467.0 0.2
468.0 0.2
469.0 0.2
470.0 0.2
471.0 0.2
472.0 0.2
473.0 0.2
474.0 0.2
475.0 0.2
476.0 0.2
477.0 0.2
478.0 0.2
479.0 0.2
480.0 0.2
481.0 0.2
482.0 0.2
483.0 0.2
484.0 0.2
485.0 0.2
486.0 0.2
487.0 0.2
488.0 0.2
489.0 0.2
490.0 0.2
491.0 0.2
492.0 0.2
493.0 0.2
494.0 0.2
495.0 0.2
496.0 0.2
497.0 0.2
498.0 0.2
499.0 0.2
500.0 0.2
501.0 0.2
502.0 0.2
503.0 0.2
504.0 0.2
505.0 0.3
506.0 0.3
507.0 0.3
508.0 0.3
509.0 0.3
510.0 0.3
511.0 0.3
512.0 0.3
513.0 0.3
514.0 0.3
515.0 0.3
516.0 0.3
517.0 0.3
518.0 0.3
519.0 0.3
520.0 0.3
521.0 0.3
522.0 0.3
523.0 0.3
524.0 0.3
525.0 0.3
526.0 0.3
527.0 0.3
528.0 0.3
529.0 0.3
530.0 0.4
531.0 0.4
532.0 0.4
533.0 0.4
534.0 0.4
535.0 0.4
536.0 0.4
537.0 0.4
538.0 0.4
539.0 0.5
540.0 0.5
541.0 0.5
542.0 0.5
543.0 0.5
544.0 0.5
545.0 0.5
546.0 0.6
547.0 0.6
548.0 0.6
549.0 0.6
550.0 0.6
551.0 0.7
552.0 0.7
553.0 0.7
554.0 0.7
555.0 0.8
556.0 0.8
557.0 0.8
558.0 0.8
559.0 0.9
560.0 0.9
561.0 0.9
562.0 1.0
563.0 1.0
564.0 1.0
565.0 1.1
566.0 1.1
567.0 1.1
568.0 1.2
569.0 1.2
570.0 1.2
571.0 1.3
572.0 1.3
573.0 1.4
574.0 1.4
575.0 1.4
576.0 1.5
577.0 1.5
578.0 1.6
579.0 1.6
580.0 1.7
581.0 1.7
582.0 1.8
583.0 1.8
584.0 1.9
585.0 1.9
586.0 2.0
587.0 2.0
588.0 2.1
589.0 2.1
590.0 2.2
591.0 2.2
592.0 2.3
593.0 2.4
594.0 2.4
595.0 2.5
596.0 2.5
597.0 2.6
598.0 2.7
599.0 2.7
600.0 2.8
601.0 2.9
602.0 2.9
603.0 3.0
604.0 3.1
605.0 3.1
606.0 3.2
607.0 3.3
608.0 3.4
609.0 3.4
610.0 3.5
611.0 3.6
612.0 3.6
613.0 3.7
614.0 3.8
615.0 3.9
616.0 3.9
617.0 4.0
618.0 4.1
619.0 4.2
620.0 4.2
621.0 4.3
622.0 4.4
623.0 4.5
624.0 4.6
625.0 4.6
626.0 4.7
627.0 4.8
628.0 4.9
629.0 5.0
630.0 5.0
631.0 5.1
632.0 5.2
633.0 5.3
634.0 5.3
635.0 5.4
636.0 5.5
637.0 5.6
638.0 5.7
639.0 5.7
640.0 5.8
641.0 5.9
642.0 6.0
643.0 6.1
644.0 6.1
645.0 6.2
646.0 6.3
647.0 6.4
648.0 6.5
649.0 6.6
650.0 6.6
651.0 6.7
652.0 6.8
653.0 6.9
654.0 6.9
655.0 7.0
656.0 7.1
657.0 7.2
658.0 7.3
659.0 7.3
660.0 7.4
661.0 7.5
662.0 7.6
663.0 7.7
664.0 7.7
665.0 7.8
666.0 7.9
667.0 8.0
668.0 8.1
669.0 8.1
670.0 8.2
671.0 8.3
672.0 8.4
673.0 8.4
674.0 8.5
675.0 8.6
676.0 8.7
677.0 8.8
678.0 8.8
679.0 8.9
680.0 9.0
681.0 9.1
682.0 9.1
683.0 9.2
684.0 9.3
685.0 9.4
686.0 9.5
687.0 9.6
688.0 9.7
689.0 9.7
690.0 9.8
691.0 9.9
692.0 10.0
693.0 10.1
694.0 10.3
695.0 10.4
696.0 10.5
697.0 10.6
698.0 10.7
699.0 10.9
700.0 11.0
701.0 11.1
702.0 11.3
703.0 11.4
704.0 11.6
705.0 11.8
706.0 12.0
707.0 12.2
708.0 12.4
709.0 12.7
710.0 12.9
711.0 13.2
712.0 13.5
713.0 13.9
714.0 14.3
715.0 14.7
716.0 15.1
717.0 15.5
718.0 16.1
719.0 16.7
720.0 17.3
721.0 18.0
722.0 18.7
723.0 19.5
724.0 20.4
725.0 21.3
726.0 22.3
727.0 23.4
728.0 24.6
729.0 25.9
730.0 27.2
731.0 28.6
732.0 30.1
733.0 31.6
734.0 33.1
735.0 34.7
736.0 36.2
737.0 37.8
738.0 39.3
739.0 40.9
740.0 42.5
741.0 44.1
742.0 45.6
743.0 47.1
744.0 48.6
745.0 50.0
746.0 51.5
747.0 52.9
748.0 54.2
749.0 55.5
750.0 56.7
751.0 57.9
752.0 59.0
753.0 60.0
754.0 61.0
755.0 62.0
756.0 62.9
757.0 63.7
758.0 64.5
759.0 65.2
760.0 66.0
761.0 66.6
762.0 67.2
763.0 67.7
764.0 68.2
765.0 68.6
766.0 69.1
767.0 69.5
768.0 69.9
769.0 70.1
770.0 70.4
771.0 70.6
772.0 70.8
773.0 71.1
774.0 71.2
775.0 71.4
776.0 71.5
777.0 71.7
778.0 71.8
779.0 71.9
780.0 71.9
781.0 71.9
782.0 71.9
783.0 71.9
784.0 72.0
785.0 72.0
786.0 71.9
787.0 71.9
788.0 71.9
789.0 71.8
790.0 71.7
791.0 71.6
792.0 71.6
793.0 71.5
794.0 71.4
795.0 71.3
796.0 71.2
797.0 71.1
798.0 71.0
799.0 70.9
800.0 70.7
801.0 70.6
802.0 70.4
803.0 70.3
804.0 70.2
805.0 70.2
806.0 70.0
807.0 69.9
808.0 69.7
809.0 69.7
810.0 69.6
811.0 69.5
812.0 69.3
813.0 69.2
814.0 69.1
815.0 69.1
816.0 69.0
817.0 68.9
818.0 68.7
819.0 68.6
820.0 68.5
821.0 68.4
822.0 68.3
823.0 68.1
824.0 68.0
825.0 68.0
826.0 67.9
827.0 67.8
828.0 67.7
829.0 67.7
830.0 67.4
831.0 67.0
832.0 66.5
833.0 66.4
834.0 66.3
835.0 66.3
836.0 66.2
837.0 66.1
838.0 66.1
839.0 66.0
840.0 66.1
841.0 66.1
842.0 66.0
843.0 65.9
844.0 65.9
845.0 65.9
846.0 65.8
847.0 65.8
848.0 65.7
849.0 65.8
850.0 65.7
851.0 65.7
852.0 65.7
853.0 65.7
854.0 65.7
855.0 65.7
856.0 65.7
857.0 65.7
858.0 65.7
859.0 65.7
860.0 65.7
861.0 65.7
862.0 65.8
863.0 65.8
864.0 65.9
865.0 65.9
866.0 65.9
867.0 66.0
868.0 66.0
869.0 66.1
870.0 66.1
871.0 66.1
872.0 66.2
873.0 66.3
874.0 66.4
875.0 66.4
876.0 66.5
877.0 66.5
878.0 66.6
879.0 66.7
880.0 66.7
881.0 66.8
882.0 66.9
883.0 67.0
884.0 67.1
885.0 67.2
886.0 67.2
887.0 67.3
888.0 67.4
889.0 67.5
890.0 67.6
891.0 67.8
892.0 67.9
893.0 68.0
894.0 68.1
895.0 68.2
896.0 68.3
897.0 68.4
898.0 68.5
899.0 68.6
900.0 68.7
901.0 68.8
902.0 68.9
903.0 69.0
904.0 69.1
905.0 69.2
906.0 69.3
907.0 69.4
908.0 69.5
909.0 69.6
910.0 69.7
911.0 69.8
912.0 69.9
913.0 70.0
914.0 70.1
915.0 70.2
916.0 70.3
917.0 70.4
918.0 70.5
919.0 70.6
920.0 70.7
921.0 70.8
922.0 70.8
923.0 70.9
924.0 71.0
925.0 71.1
926.0 71.2
927.0 71.3
928.0 71.3
929.0 71.4
930.0 71.5
931.0 71.5
932.0 71.5
933.0 71.6
934.0 71.6
935.0 71.7
936.0 71.7
937.0 71.8
938.0 71.8
939.0 71.9
940.0 71.9
941.0 71.9
942.0 71.9
943.0 71.9
944.0 71.9
945.0 71.9
946.0 71.9
947.0 71.9
948.0 71.9
949.0 71.9
950.0 71.9
951.0 71.9
952.0 71.8
953.0 71.8
954.0 71.8
955.0 71.7
956.0 71.7
957.0 71.6
958.0 71.6
959.0 71.5
960.0 71.4
961.0 71.4
962.0 71.3
963.0 71.2
964.0 71.1
965.0 71.0
966.0 70.9
967.0 70.9
968.0 70.8
969.0 70.7
970.0 70.6
971.0 70.5
972.0 70.3
973.0 70.2
974.0 70.1
975.0 69.9
976.0 69.8
977.0 69.7
978.0 69.5
979.0 69.4
980.0 69.2
981.0 69.1
982.0 68.9
983.0 68.8
984.0 68.7
985.0 68.5
986.0 68.3
987.0 68.1
988.0 67.9
989.0 67.7
990.0 67.6
991.0 67.4
992.0 67.2
993.0 67.0
994.0 66.9
995.0 66.7
996.0 66.5
997.0 66.3
998.0 66.1
999.0 65.9
1000.0 65.7
1001.0 65.5
1002.0 65.3
1003.0 65.1
1004.0 64.9
1005.0 64.7
1006.0 64.5
1007.0 64.2
1008.0 64.0
1009.0 63.8
1010.0 63.6
1011.0 63.4
1012.0 63.1
1013.0 62.9
1014.0 62.7
1015.0 62.5
1016.0 62.3
1017.0 62.1
1018.0 61.9
1019.0 61.6
1020.0 61.4
1021.0 61.2
1022.0 61.0
1023.0 60.7
1024.0 60.5
1025.0 60.3
1026.0 60.1
1027.0 59.8
1028.0 59.6
1029.0 59.4
1030.0 59.2
1031.0 59.0
1032.0 58.8
1033.0 58.6
1034.0 58.4
1035.0 58.2
1036.0 57.9
1037.0 57.7
1038.0 57.5
1039.0 57.3
1040.0 57.1
1041.0 56.9
1042.0 56.7
1043.0 56.5
1044.0 56.2
1045.0 56.0
1046.0 55.8
1047.0 55.6
1048.0 55.4
1049.0 55.3
1050.0 55.1
1051.0 54.9
1052.0 54.7
1053.0 54.5
1054.0 54.3
1055.0 54.1
1056.0 53.9
1057.0 53.7
1058.0 53.5
1059.0 53.3
1060.0 53.2
1061.0 53.0
1062.0 52.8
1063.0 52.7
1064.0 52.5
1065.0 52.3
1066.0 52.1
1067.0 52.0
1068.0 51.8
1069.0 51.6
1070.0 51.5
1071.0 51.3
1072.0 51.2
1073.0 51.0
1074.0 50.8
1075.0 50.7
1076.0 50.5
1077.0 50.4
1078.0 50.2
1079.0 50.1
1080.0 50.0
1081.0 49.8
1082.0 49.7
1083.0 49.6
1084.0 49.4
1085.0 49.3
1086.0 49.2
1087.0 49.0
1088.0 48.9
1089.0 48.8
1090.0 48.7
1091.0 48.6
1092.0 48.4
1093.0 48.3
1094.0 48.2
1095.0 48.1
1096.0 48.0
1097.0 47.9
1098.0 47.8
1099.0 47.7
1100.0 47.6
